# Time (s) Displacemement (mm)
0 0
0.001 0.00152855
0.002 0.00388277
0.003 0.00702435
0.004 0.0112961
0.005 0.0155928
0.006 0.0207733
0.007 0.0263046
0.008 0.0319608
0.009 0.0380377
0.01 0.0446726
0.011 0.0515848
0.012 0.0586837
0.013 0.0662629
0.014 0.0739527
0.015 0.0818594
0.016 0.0901482
0.017 0.0987407
0.018 0.1075
0.019 0.116398
0.02 0.125593
0.021 0.134961
0.022 0.144551
0.023 0.154384
0.024 0.164341
0.025 0.174457
0.026 0.184771
0.027 0.195269
0.028 0.205904
0.029 0.2167
0.03 0.227659
0.031 0.238742
0.032 0.249954
0.033 0.261307
0.034 0.272782
0.035 0.284376
0.036 0.296097
0.037 0.307895
0.038 0.319765
0.039 0.331735
0.04 0.343804
0.041 0.355958
0.042 0.36818
0.043 0.380468
0.044 0.392835
0.045 0.405302
0.046 0.417848
0.047 0.430453
0.048 0.443128
0.049 0.455891
0.05 0.468756
0.051 0.481729
0.052 0.494824
0.053 0.508055
0.054 0.521425
0.055 0.534914
0.056 0.548465
0.057 0.561994
0.058 0.575384
0.059 0.588484
0.06 0.601163
0.061 0.613394
0.062 0.625296
0.063 0.637136
0.064 0.649276
0.065 0.662044
0.066 0.675623
0.067 0.69
0.068 0.704998
0.069 0.720403
0.07 0.736091
0.071 0.752058
0.072 0.768351
0.073 0.784966
0.074 0.801815
0.075 0.818763
0.076 0.835706
0.077 0.85259
0.078 0.86939
0.079 0.88609
0.08 0.902679
0.081 0.919146
0.082 0.935466
0.083 0.951594
0.084 0.967495
0.085 0.983172
0.086 0.998671
0.087 1.01403
0.088 1.02923
0.089 1.04426
0.09 1.05912
0.091 1.07389
0.092 1.08861
0.093 1.10326
0.094 1.11778
0.095 1.13215
0.096 1.14641
0.097 1.16059
0.098 1.17469
0.099 1.18867
0.1 1.20251
0.101 1.21623
0.102 1.22983
0.103 1.24325
0.104 1.25643
0.105 1.26935
0.106 1.28206
0.107 1.29462
0.108 1.30702
0.109 1.31929
0.11 1.33144
0.111 1.34351
0.112 1.35556
0.113 1.36757
0.114 1.37954
0.115 1.3915
0.116 1.40351
0.117 1.41568
0.118 1.4281
0.119 1.44082
0.12 1.45385
0.121 1.46713
0.122 1.48054
0.123 1.49386
0.124 1.50685
0.125 1.51931
0.126 1.5312
0.127 1.54258
0.128 1.55366
0.129 1.56471
0.13 1.57599
0.131 1.58762
0.132 1.59962
0.133 1.61193
0.134 1.62454
0.135 1.63746
0.136 1.65078
0.137 1.66455
0.138 1.67881
0.139 1.69349
0.14 1.70848
0.141 1.72365
0.142 1.73889
0.143 1.75416
0.144 1.76948
0.145 1.78483
0.146 1.80017
0.147 1.81547
0.148 1.83068
0.149 1.84581
0.15 1.86094
0.151 1.87613
0.152 1.89144
0.153 1.90691
0.154 1.92255
0.155 1.93841
0.156 1.95452
0.157 1.97092
0.158 1.98758
0.159 2.00447
0.16 2.02154
0.161 2.03873
0.162 2.05602
0.163 2.07337
0.164 2.09073
0.165 2.10806
0.166 2.12529
0.167 2.14237
0.168 2.15929
0.169 2.17603
0.17 2.19261
0.171 2.20908
0.172 2.22554
0.173 2.2421
0.174 2.25885
0.175 2.27582
0.176 2.29295
0.177 2.31011
0.178 2.32716
0.179 2.34389
0.18 2.36018
0.181 2.37598
0.182 2.39134
0.183 2.40634
0.184 2.42106
0.185 2.43549
0.186 2.44958
0.187 2.46325
0.188 2.47645
0.189 2.48915
0.19 2.50138
0.191 2.51327
0.192 2.52496
0.193 2.53664
0.194 2.5484
0.195 2.56026
0.196 2.57219
0.197 2.58412
0.198 2.59604
0.199 2.6079
0.2 2.6197
0.201 2.63141
0.202 2.64303
0.203 2.65448
0.204 2.66571
0.205 2.67664
0.206 2.68723
0.207 2.69748
0.208 2.70738
0.209 2.71694
0.21 2.72617
0.211 2.7351
0.212 2.74382
0.213 2.75241
0.214 2.76099
0.215 2.76961
0.216 2.77832
0.217 2.78707
0.218 2.79578
0.219 2.80433
0.22 2.81263
0.221 2.8206
0.222 2.82823
0.223 2.83555
0.224 2.84258
0.225 2.84935
0.226 2.85588
0.227 2.86221
0.228 2.86839
0.229 2.8745
0.23 2.88059
0.231 2.88669
0.232 2.89275
0.233 2.89872
0.234 2.90454
0.235 2.91022
0.236 2.91579
0.237 2.92136
0.238 2.92699
0.239 2.9327
0.24 2.93843
0.241 2.94408
0.242 2.9495
0.243 2.9546
0.244 2.95933
0.245 2.96372
0.246 2.96787
0.247 2.97186
0.248 2.97579
0.249 2.97969
0.25 2.98361
0.251 2.98755
0.252 2.99152
0.253 2.99555
0.254 2.99967
0.255 3.00391
0.256 3.00827
0.257 3.0127
0.258 3.01713
0.259 3.0215
0.26 3.02575
0.261 3.02982
0.262 3.03365
0.263 3.03721
0.264 3.04044
0.265 3.0433
0.266 3.04578
0.267 3.04787
0.268 3.04962
0.269 3.05107
0.27 3.05234
0.271 3.05351
0.272 3.05467
0.273 3.05587
0.274 3.05712
0.275 3.0584
0.276 3.05969
0.277 3.06092
0.278 3.06205
0.279 3.06301
0.28 3.06374
0.281 3.06423
0.282 3.06449
0.283 3.06459
0.284 3.06463
0.285 3.06468
0.286 3.06478
0.287 3.06488
0.288 3.06489
0.289 3.06475
0.29 3.0644
0.291 3.06389
0.292 3.0633
0.293 3.06273
0.294 3.06226
0.295 3.06185
0.296 3.0614
0.297 3.06077
0.298 3.0598
0.299 3.05842
0.3 3.05662
0.301 3.05446
0.302 3.05203
0.303 3.0494
0.304 3.04661
0.305 3.04363
0.306 3.0404
0.307 3.03688
0.308 3.03306
0.309 3.02898
0.31 3.02472
0.311 3.02038
0.312 3.01606
0.313 3.01181
0.314 3.00769
0.315 3.00366
0.316 2.99967
0.317 2.9956
0.318 2.99134
0.319 2.98678
0.32 2.98186
0.321 2.97653
0.322 2.97079
0.323 2.96471
0.324 2.95836
0.325 2.95182
0.326 2.94516
0.327 2.93841
0.328 2.9316
0.329 2.92472
0.33 2.91779
0.331 2.91084
0.332 2.9039
0.333 2.89697
0.334 2.89003
0.335 2.88303
0.336 2.87594
0.337 2.86874
0.338 2.86143
0.339 2.85403
0.34 2.84654
0.341 2.83891
0.342 2.83106
0.343 2.82291
0.344 2.81438
0.345 2.80546
0.346 2.7962
0.347 2.78671
0.348 2.77713
0.349 2.76754
0.35 2.75799
0.351 2.74844
0.352 2.73882
0.353 2.72906
0.354 2.71908
0.355 2.70887
0.356 2.69843
0.357 2.68775
0.358 2.67682
0.359 2.66562
0.36 2.65409
0.361 2.64217
0.362 2.62979
0.363 2.61696
0.364 2.60369
0.365 2.59009
0.366 2.57627
0.367 2.56241
0.368 2.54864
0.369 2.53508
0.37 2.52176
0.371 2.5087
0.372 2.49581
0.373 2.48301
0.374 2.47021
0.375 2.45732
0.376 2.44425
0.377 2.43095
0.378 2.41739
0.379 2.40357
0.38 2.38948
0.381 2.37512
0.382 2.36045
0.383 2.34546
0.384 2.33012
0.385 2.31445
0.386 2.29848
0.387 2.28229
0.388 2.26594
0.389 2.24948
0.39 2.23296
0.391 2.21644
0.392 2.19993
0.393 2.18344
0.394 2.16699
0.395 2.15053
0.396 2.13403
0.397 2.11739
0.398 2.10051
0.399 2.08331
0.4 2.06574
0.401 2.04784
0.402 2.02971
0.403 2.01147
0.404 1.99324
0.405 1.97508
0.406 1.95697
0.407 1.9389
0.408 1.92083
0.409 1.90281
0.41 1.88494
0.411 1.86733
0.412 1.85009
0.413 1.83322
0.414 1.81665
0.415 1.80021
0.416 1.78375
0.417 1.76713
0.418 1.75025
0.419 1.73312
0.42 1.71575
0.421 1.69823
0.422 1.68061
0.423 1.66296
0.424 1.64533
0.425 1.62775
0.426 1.61022
0.427 1.59275
0.428 1.57535
0.429 1.55803
0.43 1.54086
0.431 1.5239
0.432 1.5072
0.433 1.49078
0.434 1.47462
0.435 1.45865
0.436 1.44276
0.437 1.42684
0.438 1.4108
0.439 1.39461
0.44 1.37825
0.441 1.36174
0.442 1.34512
0.443 1.32841
0.444 1.31164
0.445 1.29481
0.446 1.27792
0.447 1.26096
0.448 1.24395
0.449 1.2269
0.45 1.20983
0.451 1.19279
0.452 1.17581
0.453 1.15891
0.454 1.14208
0.455 1.12532
0.456 1.10863
0.457 1.09204
0.458 1.07554
0.459 1.05914
0.46 1.0428
0.461 1.02645
0.462 1.01003
0.463 0.993455
0.464 0.97672
0.465 0.959865
0.466 0.942989
0.467 0.926223
0.468 0.909687
0.469 0.893458
0.47 0.877554
0.471 0.861949
0.472 0.846599
0.473 0.831482
0.474 0.816611
0.475 0.802032
0.476 0.78779
0.477 0.773903
0.478 0.760337
0.479 0.747014
0.48 0.733835
0.481 0.720704
0.482 0.707543
0.483 0.694298
0.484 0.68094
0.485 0.667464
0.486 0.653897
0.487 0.640294
0.488 0.626725
0.489 0.613256
0.49 0.599938
0.491 0.586798
0.492 0.573849
0.493 0.561103
0.494 0.54858
0.495 0.536317
0.496 0.524357
0.497 0.512726
0.498 0.501419
0.499 0.490386
0.5 0.479548
0.501 0.468815
0.502 0.458114
0.503 0.4474
0.504 0.436652
0.505 0.425868
0.506 0.415061
0.507 0.404259
0.508 0.393507
0.509 0.382865
0.51 0.372391
0.511 0.362122
0.512 0.352061
0.513 0.342171
0.514 0.332388
0.515 0.32265
0.516 0.312913
0.517 0.303173
0.518 0.293465
0.519 0.283853
0.52 0.274415
0.521 0.265224
0.522 0.256335
0.523 0.247769
0.524 0.239511
0.525 0.231506
0.526 0.223676
0.527 0.215934
0.528 0.208216
0.529 0.200502
0.53 0.192827
0.531 0.18527
0.532 0.177931
0.533 0.170892
0.534 0.164192
0.535 0.157821
0.536 0.151743
0.537 0.145924
0.538 0.140372
0.539 0.135138
0.54 0.130307
0.541 0.125966
0.542 0.122162
0.543 0.11889
0.544 0.116095
0.545 0.113697
0.546 0.111622
0.547 0.109823
0.548 0.108279
0.549 0.106984
0.55 0.105931
0.551 0.105101
0.552 0.104454
0.553 0.103932
0.554 0.103468
0.555 0.102991
0.556 0.102444
0.557 0.101798
0.558 0.101068
0.559 0.100315
0.56 0.0996369
0.561 0.0991466
0.562 0.0989391
0.563 0.0990708
0.564 0.0995526
0.565 0.100361
0.566 0.101455
0.567 0.102789
0.568 0.104323
0.569 0.106013
0.57 0.107824
0.571 0.109727
0.572 0.111719
0.573 0.113826
0.574 0.116096
0.575 0.118586
0.576 0.121337
0.577 0.124358
0.578 0.127615
0.579 0.131047
0.58 0.13458
0.581 0.13815
0.582 0.141727
0.583 0.145321
0.584 0.148985
0.585 0.152805
0.586 0.156889
0.587 0.161344
0.588 0.166253
0.589 0.171651
0.59 0.177517
0.591 0.18378
0.592 0.190343
0.593 0.197119
0.594 0.204059
0.595 0.211169
0.596 0.218491
0.597 0.226077
0.598 0.233949
0.599 0.242081
0.6 0.250406
0.601 0.258843
0.602 0.267344
0.603 0.275919
0.604 0.28464
0.605 0.293621
0.606 0.302975
0.607 0.312779
0.608 0.323055
0.609 0.333777
0.61 0.344895
0.611 0.356359
0.612 0.368142
0.613 0.380237
0.614 0.39265
0.615 0.405376
0.616 0.418391
0.617 0.431644
0.618 0.445058
0.619 0.458541
0.62 0.472001
0.621 0.485364
0.622 0.498584
0.623 0.511659
0.624 0.52462
0.625 0.537521
0.626 0.550423
0.627 0.563376
0.628 0.576414
0.629 0.589549
0.63 0.60278
0.631 0.616095
0.632 0.629479
0.633 0.642908
0.634 0.656364
0.635 0.669832
0.636 0.683315
0.637 0.696837
0.638 0.710435
0.639 0.724155
0.64 0.738036
0.641 0.7521
0.642 0.766354
0.643 0.780781
0.644 0.795352
0.645 0.810025
0.646 0.824752
0.647 0.839487
0.648 0.854193
0.649 0.868857
0.65 0.883495
0.651 0.898158
0.652 0.912914
0.653 0.927824
0.654 0.942925
0.655 0.95821
0.656 0.973646
0.657 0.989191
0.658 1.00482
0.659 1.02056
0.66 1.03646
0.661 1.05258
0.662 1.06896
0.663 1.0856
0.664 1.10244
0.665 1.1194
0.666 1.13639
0.667 1.15335
0.668 1.17025
0.669 1.1871
0.67 1.20394
0.671 1.2208
0.672 1.23769
0.673 1.25463
0.674 1.27161
0.675 1.28867
0.676 1.30584
0.677 1.32318
0.678 1.34072
0.679 1.35848
0.68 1.37646
0.681 1.39466
0.682 1.41304
0.683 1.43157
0.684 1.4502
0.685 1.46885
0.686 1.48747
0.687 1.50596
0.688 1.52427
0.689 1.54236
0.69 1.56023
0.691 1.57788
0.692 1.59536
0.693 1.61268
0.694 1.62987
0.695 1.64694
0.696 1.66388
0.697 1.68068
0.698 1.69735
0.699 1.71386
0.7 1.73023
0.701 1.74649
0.702 1.76267
0.703 1.77886
0.704 1.79514
0.705 1.81159
0.706 1.82828
0.707 1.84522
0.708 1.86235
0.709 1.87959
0.71 1.89682
0.711 1.91392
0.712 1.93082
0.713 1.9475
0.714 1.96399
0.715 1.98035
0.716 1.99666
0.717 2.01298
0.718 2.02932
0.719 2.04565
0.72 2.06192
0.721 2.07809
0.722 2.09416
0.723 2.11015
0.724 2.12613
0.725 2.14213
0.726 2.15816
0.727 2.17422
0.728 2.19023
0.729 2.20613
0.73 2.22185
0.731 2.23737
0.732 2.2527
0.733 2.26787
0.734 2.28291
0.735 2.29786
0.736 2.31272
0.737 2.32751
0.738 2.3422
0.739 2.3568
0.74 2.37132
0.741 2.38577
0.742 2.40019
0.743 2.41461
0.744 2.42908
0.745 2.44362
0.746 2.45826
0.747 2.47297
0.748 2.48774
0.749 2.50248
0.75 2.51711
0.751 2.53155
0.752 2.54573
0.753 2.55959
0.754 2.57313
0.755 2.58635
0.756 2.59927
0.757 2.61192
0.758 2.62435
0.759 2.63659
0.76 2.64871
0.761 2.66075
0.762 2.67273
0.763 2.68467
0.764 2.69652
0.765 2.70823
0.766 2.71974
0.767 2.73098
0.768 2.74193
0.769 2.75262
0.77 2.76309
0.771 2.77338
0.772 2.78351
0.773 2.79347
0.774 2.8032
0.775 2.81266
0.776 2.82181
0.777 2.83065
0.778 2.83922
0.779 2.84757
0.78 2.85575
0.781 2.86379
0.782 2.87169
0.783 2.87941
0.784 2.8869
0.785 2.89413
0.786 2.90108
0.787 2.90775
0.788 2.91416
0.789 2.92033
0.79 2.92628
0.791 2.93199
0.792 2.93747
0.793 2.94269
0.794 2.94766
0.795 2.95239
0.796 2.9569
0.797 2.96124
0.798 2.96545
0.799 2.96961
0.8 2.97378
0.801 2.97802
0.802 2.98237
0.803 2.98686
0.804 2.99145
0.805 2.99608
0.806 3.00066
0.807 3.0051
0.808 3.00931
0.809 3.01326
0.81 3.01692
0.811 3.02032
0.812 3.02349
0.813 3.02648
0.814 3.02931
0.815 3.032
0.816 3.03456
0.817 3.03695
0.818 3.03918
0.819 3.04122
0.82 3.04307
0.821 3.04472
0.822 3.04617
0.823 3.04745
0.824 3.04859
0.825 3.04963
0.826 3.05059
0.827 3.0515
0.828 3.05234
0.829 3.05307
0.83 3.05367
0.831 3.05413
0.832 3.05447
0.833 3.05474
0.834 3.055
0.835 3.05531
0.836 3.05566
0.837 3.05603
0.838 3.05636
0.839 3.05657
0.84 3.05663
0.841 3.05655
0.842 3.05635
0.843 3.05606
0.844 3.05572
0.845 3.05532
0.846 3.05483
0.847 3.05419
0.848 3.05336
0.849 3.05229
0.85 3.05096
0.851 3.04934
0.852 3.04745
0.853 3.0453
0.854 3.0429
0.855 3.04029
0.856 3.0375
0.857 3.03459
0.858 3.0316
0.859 3.02859
0.86 3.02558
0.861 3.02261
0.862 3.0197
0.863 3.01682
0.864 3.01397
0.865 3.01108
0.866 3.00811
0.867 3.00498
0.868 3.00165
0.869 2.99809
0.87 2.99429
0.871 2.99025
0.872 2.98602
0.873 2.9816
0.874 2.97701
0.875 2.97225
0.876 2.96728
0.877 2.96209
0.878 2.95665
0.879 2.951
0.88 2.94517
0.881 2.93921
0.882 2.93317
0.883 2.92708
0.884 2.92093
0.885 2.91471
0.886 2.9084
0.887 2.90199
0.888 2.89552
0.889 2.88903
0.89 2.88252
0.891 2.87601
0.892 2.86946
0.893 2.86279
0.894 2.85596
0.895 2.84892
0.896 2.84168
0.897 2.83427
0.898 2.82676
0.899 2.8192
0.9 2.81164
0.901 2.80407
0.902 2.79643
0.903 2.78863
0.904 2.78056
0.905 2.77212
0.906 2.76325
0.907 2.75392
0.908 2.74414
0.909 2.73397
0.91 2.7235
0.911 2.71282
0.912 2.70202
0.913 2.69118
0.914 2.68034
0.915 2.6695
0.916 2.65867
0.917 2.64783
0.918 2.63696
0.919 2.62609
0.92 2.61522
0.921 2.60438
0.922 2.59357
0.923 2.58278
0.924 2.57198
0.925 2.56112
0.926 2.55015
0.927 2.53903
0.928 2.52775
0.929 2.51629
0.93 2.50463
0.931 2.49275
0.932 2.48061
0.933 2.46818
0.934 2.45547
0.935 2.44248
0.936 2.42922
0.937 2.41571
0.938 2.40197
0.939 2.38799
0.94 2.37375
0.941 2.35927
0.942 2.34454
0.943 2.32959
0.944 2.31445
0.945 2.29912
0.946 2.2836
0.947 2.26784
0.948 2.25181
0.949 2.23547
0.95 2.21882
0.951 2.20193
0.952 2.18487
0.953 2.16779
0.954 2.1508
0.955 2.13399
0.956 2.11739
0.957 2.10097
0.958 2.08464
0.959 2.06828
0.96 2.05177
0.961 2.03504
0.962 2.01807
0.963 2.00085
0.964 1.98344
0.965 1.96588
0.966 1.94823
0.967 1.93055
0.968 1.91287
0.969 1.89522
0.97 1.8776
0.971 1.86003
0.972 1.84252
0.973 1.82509
0.974 1.80779
0.975 1.79066
0.976 1.77377
0.977 1.75719
0.978 1.74097
0.979 1.72517
0.98 1.70981
0.981 1.69493
0.982 1.68052
0.983 1.66657
0.984 1.65306
0.985 1.63993
0.986 1.62713
0.987 1.61459
0.988 1.60225
0.989 1.59006
0.99 1.57797
0.991 1.56597
0.992 1.55403
0.993 1.54213
0.994 1.53029
0.995 1.51849
0.996 1.50677
0.997 1.49514
0.998 1.48361
0.999 1.47219
1 1.46087
1.001 1.44959
1.002 1.4383
1.003 1.42692
1.004 1.41537
1.005 1.40363
1.006 1.39169
1.007 1.3796
1.008 1.36742
1.009 1.35522
1.01 1.34301
1.011 1.33079
1.012 1.31849
1.013 1.30605
1.014 1.29341
1.015 1.28054
1.016 1.26748
1.017 1.25425
1.018 1.24093
1.019 1.22756
1.02 1.21415
1.021 1.2007
1.022 1.18715
1.023 1.17343
1.024 1.15947
1.025 1.14518
1.026 1.13052
1.027 1.11545
1.028 1.09997
1.029 1.0841
1.03 1.06788
1.031 1.05134
1.032 1.03451
1.033 1.01741
1.034 1.00007
1.035 0.982524
1.036 0.964804
1.037 0.946954
1.038 0.929008
1.039 0.910988
1.04 0.892903
1.041 0.874759
1.042 0.856568
1.043 0.838361
1.044 0.820194
1.045 0.802146
1.046 0.784315
1.047 0.766803
1.048 0.749705
1.049 0.733089
1.05 0.716995
1.051 0.70143
1.052 0.686377
1.053 0.671803
1.054 0.657669
1.055 0.643934
1.056 0.630554
1.057 0.617485
1.058 0.604681
1.059 0.592103
1.06 0.579723
1.061 0.567529
1.062 0.555525
1.063 0.543716
1.064 0.5321
1.065 0.52066
1.066 0.509357
1.067 0.49814
1.068 0.486957
1.069 0.475767
1.07 0.46455
1.071 0.45331
1.072 0.442071
1.073 0.430866
1.074 0.419721
1.075 0.408641
1.076 0.397601
1.077 0.386552
1.078 0.375429
1.079 0.364174
1.08 0.352749
1.081 0.341155
1.082 0.329427
1.083 0.317638
1.084 0.305883
1.085 0.29426
1.086 0.282845
1.087 0.271676
1.088 0.260744
1.089 0.249998
1.09 0.239368
1.091 0.228781
1.092 0.218188
1.093 0.207571
1.094 0.196941
1.095 0.186331
1.096 0.175779
1.097 0.165319
1.098 0.154978
1.099 0.144775
1.1 0.134727
1.101 0.124846
1.102 0.115143
1.103 0.105627
1.104 0.0963117
1.105 0.0872131
1.106 0.0783603
1.107 0.069797
1.108 0.0615832
1.109 0.053794
1.11 0.0465172
1.111 0.039849
1.112 0.0338892
1.113 0.0287328
1.114 0.0244536
1.115 0.0210774
1.116 0.0185603
1.117 0.0167978
1.118 0.0156819
1.119 0.0151777
1.12 0.0153533
1.121 0.016328
1.122 0.0181748
1.123 0.0208745
1.124 0.0243478
1.125 0.0285114
1.126 0.0333071
1.127 0.0387024
1.128 0.0446729
1.129 0.0511848
1.13 0.0581839
1.131 0.0655976
1.132 0.0733465
1.133 0.0813602
1.134 0.0895912
1.135 0.0980235
1.136 0.106672
1.137 0.115572
1.138 0.124762
1.139 0.134261
1.14 0.144053
1.141 0.154081
1.142 0.164253
1.143 0.174464
1.144 0.184616
1.145 0.194636
1.146 0.204487
1.147 0.214169
1.148 0.22371
1.149 0.233163
1.15 0.242586
1.151 0.252035
1.152 0.26156
1.153 0.271193
1.154 0.280959
1.155 0.290869
1.156 0.300929
1.157 0.311142
1.158 0.321508
1.159 0.332032
1.16 0.342716
1.161 0.353568
1.162 0.3646
1.163 0.375831
1.164 0.387286
1.165 0.398987
1.166 0.410951
1.167 0.423175
1.168 0.43564
1.169 0.448305
1.17 0.461124
1.171 0.47405
1.172 0.487042
1.173 0.500072
1.174 0.513116
1.175 0.526157
1.176 0.539192
1.177 0.552233
1.178 0.565319
1.179 0.578512
1.18 0.591899
1.181 0.605574
1.182 0.619628
1.183 0.634132
1.184 0.649124
1.185 0.6646
1.186 0.680515
1.187 0.696789
1.188 0.713324
1.189 0.73003
1.19 0.746837
1.191 0.763708
1.192 0.780635
1.193 0.797619
1.194 0.814656
1.195 0.831713
1.196 0.848723
1.197 0.865589
1.198 0.882213
1.199 0.898511
1.2 0.914449
1.201 0.930044
1.202 0.945363
1.203 0.9605
1.204 0.975552
1.205 0.990589
1.206 1.00564
1.207 1.02071
1.208 1.03573
1.209 1.05067
1.21 1.06546
1.211 1.08007
1.212 1.09446
1.213 1.10863
1.214 1.12254
1.215 1.13618
1.216 1.14952
1.217 1.16256
1.218 1.17528
1.219 1.1877
1.22 1.19986
1.221 1.21178
1.222 1.22352
1.223 1.23511
1.224 1.24661
1.225 1.25805
1.226 1.26945
1.227 1.28084
1.228 1.29224
1.229 1.30368
1.23 1.31522
1.231 1.3269
1.232 1.33879
1.233 1.35091
1.234 1.36329
1.235 1.37589
1.236 1.38867
1.237 1.40154
1.238 1.41443
1.239 1.42724
1.24 1.43992
1.241 1.45243
1.242 1.46476
1.243 1.47693
1.244 1.48902
1.245 1.50112
1.246 1.51333
1.247 1.52579
1.248 1.53859
1.249 1.55182
1.25 1.56553
1.251 1.5797
1.252 1.59428
1.253 1.60917
1.254 1.62429
1.255 1.63956
1.256 1.65491
1.257 1.67034
1.258 1.68584
1.259 1.70143
1.26 1.7171
1.261 1.73283
1.262 1.74857
1.263 1.76425
1.264 1.77985
1.265 1.79533
1.266 1.81072
1.267 1.82606
1.268 1.84141
1.269 1.85681
1.27 1.8723
1.271 1.88789
1.272 1.90357
1.273 1.9193
1.274 1.93504
1.275 1.95074
1.276 1.96637
1.277 1.98189
1.278 1.99729
1.279 2.01257
1.28 2.02772
1.281 2.04276
1.282 2.05768
1.283 2.07251
1.284 2.08728
1.285 2.10206
1.286 2.11692
1.287 2.13198
1.288 2.14737
1.289 2.16319
1.29 2.17951
1.291 2.19635
1.292 2.21365
1.293 2.2313
1.294 2.24915
1.295 2.26701
1.296 2.28471
1.297 2.3021
1.298 2.31907
1.299 2.33559
1.3 2.35165
1.301 2.36729
1.302 2.38257
1.303 2.39756
1.304 2.41229
1.305 2.42679
1.306 2.44106
1.307 2.4551
1.308 2.4689
1.309 2.48246
1.31 2.49581
1.311 2.50899
1.312 2.52206
1.313 2.53507
1.314 2.54804
1.315 2.56095
1.316 2.57374
1.317 2.58636
1.318 2.59871
1.319 2.61076
1.32 2.62249
1.321 2.63389
1.322 2.64501
1.323 2.65587
1.324 2.66647
1.325 2.67682
1.326 2.68692
1.327 2.69676
1.328 2.70638
1.329 2.71582
1.33 2.72517
1.331 2.73451
1.332 2.74389
1.333 2.75331
1.334 2.76273
1.335 2.77206
1.336 2.78117
1.337 2.78996
1.338 2.79835
1.339 2.80631
1.34 2.81387
1.341 2.8211
1.342 2.82809
1.343 2.83494
1.344 2.84174
1.345 2.84856
1.346 2.85547
1.347 2.8625
1.348 2.86965
1.349 2.8769
1.35 2.88422
1.351 2.89155
1.352 2.8988
1.353 2.90592
1.354 2.91282
1.355 2.91944
1.356 2.92573
1.357 2.93166
1.358 2.93722
1.359 2.94244
1.36 2.94734
1.361 2.95194
1.362 2.95623
1.363 2.96023
1.364 2.96391
1.365 2.96728
1.366 2.97038
1.367 2.97329
1.368 2.97611
1.369 2.97898
1.37 2.982
1.371 2.98525
1.372 2.98875
1.373 2.9925
1.374 2.99646
1.375 3.00056
1.376 3.00477
1.377 3.00901
1.378 3.01326
1.379 3.01745
1.38 3.02153
1.381 3.02547
1.382 3.0292
1.383 3.03271
1.384 3.036
1.385 3.03909
1.386 3.04205
1.387 3.04494
1.388 3.0478
1.389 3.05066
1.39 3.05346
1.391 3.05615
1.392 3.05862
1.393 3.06075
1.394 3.06246
1.395 3.06371
1.396 3.0645
1.397 3.06488
1.398 3.06495
1.399 3.06482
1.4 3.06463
1.401 3.06445
1.402 3.06434
1.403 3.0643
1.404 3.06432
1.405 3.06435
1.406 3.06434
1.407 3.06429
1.408 3.0642
1.409 3.06407
1.41 3.06393
1.411 3.06378
